#"+ESI TIC Scan Frag=175.0V MDM2C Crude More.d "
#Point,X(Minutes),Y(Counts)
0,4.076,10665553
1,4.104,14574593
2,4.131,14945789
3,4.159,15182617
4,4.187,15302280
5,4.215,15375266
6,4.242,15370386
7,4.270,15481508
8,4.298,15850747
9,4.326,15821480
10,4.354,15900990
11,4.381,15908686
12,4.409,15817324
13,4.437,15851864
14,4.465,16054750
15,4.492,16223105
16,4.520,16787926
17,4.548,16550412
18,4.576,16587374
19,4.604,16378497
20,4.631,16675347
21,4.659,17006148
22,4.687,17554560
23,4.715,17527708
24,4.743,17532762
25,4.770,17369026
26,4.798,17428932
27,4.826,17825118
28,4.854,17483528
29,4.882,17859134
30,4.909,17492880
31,4.937,18119728
32,4.965,18130888
33,4.993,18040992
34,5.020,18575488
35,5.048,18584804
36,5.076,18980060
37,5.104,19044186
38,5.132,19888044
39,5.159,20131356
40,5.187,20042136
41,5.215,20752828
42,5.243,21057788
43,5.271,21225294
44,5.298,21965656
45,5.326,22619192
46,5.354,23021964
47,5.382,23376536
48,5.409,23818468
49,5.437,24928264
50,5.465,25909952
51,5.493,27307724
52,5.521,26377868
53,5.548,25093594
54,5.576,24682874
55,5.604,24677688
56,5.632,27278054
57,5.659,32274264
58,5.687,31320952
59,5.715,27645908
60,5.743,26555656
61,5.771,27237964
62,5.798,27698916
63,5.826,27024922
64,5.854,27509788
65,5.882,28354780
66,5.910,28944092
67,5.937,30744296
68,5.965,32066912
69,5.993,33168204
70,6.021,33882024
71,6.048,35445356
72,6.076,36851720
73,6.104,39176584
74,6.132,41583948
75,6.160,45027992
76,6.187,48233784
77,6.215,51483184
78,6.243,56609332
79,6.271,62952040
80,6.299,70670992
81,6.326,78392856
82,6.354,85819368
83,6.382,94803800
84,6.410,99227664
85,6.438,98645840
86,6.465,95767264
87,6.493,91996648
88,6.521,89425664
89,6.549,86666112
90,6.576,83509792
91,6.604,80207616
92,6.632,76597072
93,6.660,77033216
94,6.688,80108432
95,6.715,79149288
96,6.743,74119440
97,6.771,70305232
98,6.799,65230760
99,6.826,61810184
100,6.854,57064948
101,6.882,54781200
102,6.910,52214792
103,6.938,49055552
104,6.965,46965248
105,6.993,45951888
106,7.021,44103224
107,7.049,42896776
108,7.077,42235596
109,7.104,41084608
110,7.132,39921880
111,7.160,39687200
112,7.188,39354592
113,7.215,39293788
114,7.243,38049808
115,7.271,37623048
116,7.299,37357732
117,7.327,36594368
118,7.354,35884536
119,7.382,35705732
120,7.410,34959184
121,7.438,34308880
122,7.466,34094824
123,7.493,33329012
124,7.521,33279520
125,7.549,33113998
126,7.577,32427506
127,7.604,32790136
128,7.632,32077974
129,7.660,31724026
130,7.688,30796332
131,7.716,30192090
132,7.743,30176644
133,7.771,29914436
134,7.799,29327256
135,7.827,29669952
136,7.855,28813580
137,7.882,29679304
138,7.910,31367816
139,7.938,30973920
140,7.966,31020932
141,7.993,29179788
142,8.021,28470016
143,8.049,28392208
144,8.077,27858536
145,8.105,27368336
146,8.132,27794900
147,8.160,29013516
148,8.188,32062790
149,8.216,35955028
150,8.244,36494784
151,8.271,33892976
152,8.299,31700296
153,8.327,30458756
154,8.355,28999852
155,8.382,28161446
156,8.410,28036480
157,8.438,32077710
158,8.466,39348384
159,8.494,41761084
160,8.521,36301720
161,8.549,31631564
162,8.577,28762418
163,8.605,26843664
164,8.633,26162034
165,8.660,25904400
166,8.688,27767942
167,8.716,30567840
168,8.744,31684072
169,8.771,29327732
170,8.799,27100716
171,8.827,26631440
172,8.855,26391158
173,8.883,25602796
174,8.910,25825820
175,8.938,25102142
176,8.966,25404528
177,8.994,25237420
178,9.022,24635672
179,9.049,24788212
180,9.077,24077816
181,9.105,23931776
182,9.133,23494608
183,9.160,23806768
184,9.188,23286718
185,9.216,23404764
186,9.244,23041132
187,9.272,22920134
188,9.299,23052778
189,9.327,22576280
190,9.355,23134554
191,9.383,23140362
192,9.411,22842220
193,9.438,22384236
194,9.466,22693834
195,9.494,22014464
196,9.522,22468384
197,9.549,21851494
198,9.577,22433156
199,9.605,22644520
200,9.633,23062436
201,9.661,22993618
202,9.688,23087164
203,9.716,23610704
204,9.744,23133392
205,9.772,23267862
206,9.800,23648596
207,9.827,23582904
208,9.855,23611254
209,9.883,23624294
210,9.911,24129670
211,9.938,24158796
212,9.966,24455254
213,9.994,24302734
214,10.022,24717744
215,10.050,24946692
216,10.077,25454162
217,10.105,25387788
218,10.133,25700416
219,10.161,25615528
220,10.189,26043056
221,10.216,25695980
222,10.244,25624616
223,10.272,26177780
224,10.300,26439554
225,10.327,26642764
226,10.355,27195396
227,10.383,27572000
228,10.411,27286436
229,10.439,27116854
230,10.466,27147004
231,10.494,28005592
232,10.522,28180862
233,10.550,28326866
234,10.578,28596260
235,10.605,28090024
236,10.633,28719600
237,10.661,29135816
238,10.689,29335812
239,10.716,29665164
240,10.744,29946546
241,10.772,29789476
242,10.800,30293160
243,10.828,30342602
244,10.855,31212304
245,10.883,31091156
246,10.911,31145868
247,10.939,31599662
248,10.967,31227296
249,10.994,31707156
250,11.022,32483896
251,11.078,13676766
252,11.106,17281916
253,11.133,347303
254,11.161,349362
255,11.189,357940
256,11.217,369812
257,11.244,362028
258,11.272,353420
259,11.300,333927
260,11.328,357491
261,11.356,348320
262,11.383,358564
263,11.411,351201
264,11.439,361980
265,11.467,369291
266,11.494,364069
267,11.522,378706
268,11.550,371369
269,11.578,365922
270,11.606,369796
271,11.633,370618
272,11.661,357115
273,11.689,385315
274,11.717,333478
275,11.745,347175
276,11.772,365306
277,11.800,373718
278,11.828,356947
279,11.856,385427
280,11.883,347080
281,11.911,332458
282,11.939,334706
283,11.967,336224
284,11.995,379993
